Time (ps)	X Voltage (V)
0	-4.95913E-5
0.0667128190396304	-6.10356E-5
0.133425638079261	-6.67577E-5
0.200138457118891	-8.01091E-5
0.266851276158522	-7.43871E-5
0.333564095198152	-6.10356E-5
0.400276914237782	-6.10356E-5
0.466989733277413	-4.00546E-5
0.533702552317043	-3.62399E-5
0.600415371356674	-5.14986E-5
0.667128190396304	-4.00546E-5
0.733841009435934	-8.39238E-5
0.800553828475565	-1.50681E-4
0.867266647515195	-1.90736E-4
0.933979466554826	-3.52861E-4
1.00069228559446	-5.07358E-4
1.06740510463409	-7.26704E-4
1.13411792367372	-0.00101472
1.20083074271335	-0.00144769
1.26754356175298	-0.0019684
1.33425638079261	-0.00261308
1.40096919983224	-0.00336267
1.46768201887187	-0.00418475
1.5343948379115	-0.00495151
1.60110765695113	-0.00554088
1.66782047599076	-0.00569919
1.73453329503039	-0.00507358
1.80124611407002	-0.00337793
1.86795893310965	-3.62398E-4
1.93467175214928	0.00413707
2.00138457118891	0.0101929
2.06809739022854	0.0166494
2.13481020926817	0.0227891
2.2015230283078	0.0263158
2.26823584734744	0.0251256
2.33494866638707	0.0181409
2.4016614854267	0.00579646
2.46837430446633	-0.00873572
2.53508712350596	-0.0193273
2.60179994254559	-0.0216447
2.66851276158522	-0.015648
2.73522558062485	-0.00647357
2.80193839966448	-1.90736E-5
2.86865121870411	8.48774E-4
2.93536403774374	-0.00179864
3.00207685678337	-0.00382997
3.068789675823	-0.00294115
3.13550249486263	-3.43325E-5
3.20221531390226	0.00238229
3.26892813294189	0.00231172
3.33564095198152	7.82018E-5
3.40235377102115	-0.00240327
3.46906659006078	-0.00284196
3.53577940910041	-0.00112916
3.60249222814004	0.0010891
3.66920504717968	0.00197984
3.73591786621931	0.00120927
3.80263068525894	-2.70845E-4
3.86934350429857	-0.00145341
3.9360563233382	-0.00212671
4.00276914237783	-0.00234605
4.06948196141746	-0.00209619
4.13619478045709	-9.21253E-4
4.20290759949672	0.00117493
4.26962041853635	0.00319292
4.33633323757598	0.00403407
4.40304605661561	0.00310136
4.46975887565524	6.46595E-4
4.53647169469487	-0.0019684
4.6031845137345	-0.00319101
4.66989733277413	-0.00260164
4.73661015181376	-5.74116E-4
4.80332297085339	0.00107575
4.87003578989302	0.00115586
4.93674860893265	-7.43871E-5
5.00346142797228	-0.00120164
5.07017424701192	-0.00114251
5.13688706605155	-5.72207E-5
5.20359988509118	0.00116349
5.27031270413081	0.00162888
5.33702552317044	0.00125314
5.40373834221007	6.16077E-4
5.4704511612497	3.60491E-4
5.53716398028933	2.11717E-4
5.60387679932896	-4.6921E-4
5.67058961836859	-0.00175095
5.73730243740822	-0.00300218
5.80401525644785	-0.00315668
5.87072807548748	-0.00193597
5.93744089452711	-1.12534E-4
6.00415371356674	0.00139428
6.07086653260637	0.00210191
6.137579351646	0.00202753
6.20429217068563	0.00120354
6.27100498972526	-1.77384E-4
6.33771780876489	-0.00179101
6.40443062780453	-0.00295831
6.47114344684416	-0.00301553
6.53785626588379	-0.00162698
6.60456908492342	4.08174E-4
6.67128190396305	0.00201418
6.73799472300268	0.00230981
6.80470754204231	0.00117493
6.87142036108194	-2.65123E-4
6.93813318012157	-0.00102807
7.0048459991612	-6.67576E-4
7.07155881820083	1.86921E-4
7.13827163724046	7.51499E-4
7.20498445628009	4.71117E-4
7.27169727531972	-3.05178E-4
7.33841009435935	-8.43052E-4
7.40512291339898	-7.05723E-4
7.47183573243861	-9.91826E-5
7.53854855147824	1.79292E-4
7.60526137051787	-2.80382E-4
7.6719741895575	-0.00102998
7.73868700859713	-0.0010872
7.80539982763676	1.64033E-4
7.87211264667639	0.00175477
7.93882546571603	0.00219156
8.00553828475566	0.00108529
8.07225110379529	-6.5041E-4
8.13896392283492	-0.00135422
8.20567674187455	-5.7793E-4
8.27238956091418	8.73569E-4
8.33910237995381	0.0015564
8.40581519899344	9.25068E-4
8.47252801803307	-3.9673E-4
8.5392408370727	-0.00114632
8.60595365611233	-9.80385E-4
8.67266647515196	-4.10082E-4
8.73937929419159	-4.57766E-5
8.80609211323122	3.43325E-5
8.87280493227085	2.04087E-4
8.93951775131048	5.60764E-4
9.00623057035011	8.06812E-4
9.07294338938974	6.25614E-4
9.13965620842937	-7.05724E-5
9.20636902746901	-9.86107E-4
9.27308184650864	-0.0013733
9.33979466554826	-8.67847E-4
9.4065074845879	1.71663E-5
9.47322030362753	3.81472E-4
9.53993312266716	-4.76839E-5
9.60664594170679	-5.7793E-4
9.67335876074642	-2.68938E-4
9.74007157978605	6.46595E-4
9.80678439882568	0.00131799
9.87349721786531	9.89921E-4
9.94021003690494	-8.39238E-5
10.0069228559446	-9.61307E-4
10.0736356749842	-8.92643E-4
10.1403484940238	-9.34605E-5
10.2070613130635	4.86376E-4
10.2737741321031	3.66213E-4
10.3404869511427	-9.91826E-5
10.4071997701824	-2.25068E-4
10.473912589222	5.53133E-5
10.5406254082616	1.83106E-4
10.6073382273012	-2.0218E-4
10.6740510463409	-7.76295E-4
10.7407638653805	-7.53406E-4
10.8074766844201	6.48503E-5
10.8741895034598	0.00117112
10.9409023224994	0.00158883
11.007615141539	8.92643E-4
11.0743279605787	-3.29973E-4
11.1410407796183	-0.00118638
11.2077535986579	-0.00109864
11.2744664176975	-5.68394E-4
11.3411792367372	-2.3842E-4
11.4078920557768	-4.00545E-4
11.4746048748164	-7.00001E-4
11.5413176938561	-6.23707E-4
11.6080305128957	0
11.6747433319353	8.25886E-4
11.741456150975	0.00153542
11.8081689700146	0.00160981
11.8748817890542	0.00103188
11.9415946080939	1.96458E-4
12.0083074271335	-5.24525E-4
12.0750202461731	-6.7139E-4
12.1417330652127	-2.99456E-4
12.2084458842524	1.96458E-4
12.275158703292	4.08174E-4
12.3418715223316	1.12534E-4
12.4085843413713	-3.9673E-4
12.4752971604109	-6.88557E-4
12.5420099794505	-2.70845E-4
12.6087227984902	5.41691E-4
12.6754356175298	0.00115205
12.7421484365694	7.89646E-4
12.8088612556091	-2.51772E-4
12.8755740746487	-0.00107957
12.9422868936883	-0.00101853
13.0089997127279	-2.36512E-4
13.0757125317676	3.58583E-4
13.1424253508072	2.32697E-4
13.2091381698468	-3.81472E-4
13.2758509888865	-6.96186E-4
13.3425638079261	-3.35695E-4
13.4092766269657	2.44142E-4
13.4759894460054	5.66486E-4
13.542702265045	4.90192E-4
13.6094150840846	2.72753E-4
13.6761279031242	2.0218E-4
13.7428407221639	3.54769E-4
13.8095535412035	5.66486E-4
13.8762663602431	7.05723E-4
13.9429791792828	7.11445E-4
14.0096919983224	2.93734E-4
14.076404817362	-4.67302E-4
14.1431176364016	-0.00123978
14.2098304554413	-0.00149918
14.2765432744809	-0.00113107
14.3432560935205	-3.92916E-4
14.4099689125602	2.55587E-4
14.4766817315998	7.15259E-4
14.5433945506394	9.63215E-4
14.610107369679	0.0012169
14.6768201887187	0.00133324
14.7435330077583	9.65122E-4
14.8102458267979	2.47956E-5
14.8769586458376	-0.00121499
14.9436714648772	-0.00197221
15.0103842839168	-0.00177003
15.0770971029564	-8.10627E-4
15.1438099219961	2.88012E-4
15.2105227410357	8.83106E-4
15.2772355600753	8.77384E-4
15.343948379115	7.19074E-4
15.4106611981546	6.59946E-4
15.4773740171942	6.1417E-4
15.5440868362339	3.20436E-4
15.6107996552735	-1.44959E-4
15.6775124743131	-5.03544E-4
15.7442252933527	-4.21526E-4
15.8109381123924	1.14442E-5
15.877650931432	4.00545E-4
15.9443637504716	3.07085E-4
16.0110765695113	-2.78475E-4
16.0777893885509	-9.34605E-4
16.1445022075905	-0.00105477
16.2112150266301	-3.47139E-4
16.2779278456698	8.20164E-4
16.3446406647094	0.00179864
16.411353483749	0.00193978
16.4780663027887	0.00108529
16.5447791218283	-1.58311E-4
16.6114919408679	-0.00112534
16.6782047599075	-0.00150491
16.7449175789472	-0.0014267
16.8116303979868	-0.00109673
16.8783432170264	-6.12263E-4
16.9450560360661	8.58312E-5
17.0117688551057	7.99183E-4
17.0784816741453	0.00115777
17.1451944931849	8.44959E-4
17.2119073122246	4.95913E-5
17.2786201312642	-5.30247E-4
17.3453329503038	-3.43325E-4
17.4120457693435	6.58039E-4
17.4787585883831	0.0016861
17.5454714074227	0.00190354
17.6121842264624	8.90736E-4
17.678897045502	-7.13352E-4
17.7456098645416	-0.00196268
17.8123226835812	-0.00214769
17.8790355026209	-0.00132943
17.9457483216605	-2.93734E-4
18.0124611407001	4.67302E-4
18.0791739597398	7.80109E-4
18.1458867787794	9.2316E-4
18.212599597819	9.63215E-4
18.2793124168586	7.26704E-4
18.3460252358983	3.81472E-5
18.4127380549379	-0.00113488
18.4794508739775	-0.00225832
18.5461636930172	-0.0026188
18.6128765120568	-0.00172425
18.6795893310964	9.15532E-5
18.746302150136	0.0019188
18.8130149691757	0.00259019
18.8797277882153	0.00173569
18.9464406072549	9.72752E-5
19.0131534262946	-8.0872E-4
19.0798662453342	-6.10355E-4
19.1465790643738	3.49047E-4
19.2132918834134	9.63215E-4
19.2800047024531	5.39783E-4
19.3467175214927	-6.21799E-4
19.4134303405323	-0.00155831
19.480143159572	-0.00153352
19.5468559786116	-6.12263E-4
19.6135687976512	4.90192E-4
19.6802816166908	9.61307E-4
19.7469944357305	7.85831E-4
19.8137072547701	3.45232E-4
19.8804200738097	1.58311E-4
19.9471328928494	3.29973E-4
20.013845711889	5.83652E-4
20.0805585309286	4.94007E-4
20.1472713499682	-9.53679E-5
20.2139841690079	-9.44141E-4
20.2806969880475	-0.00161172
20.3474098070871	-0.00152207
20.4141226261268	-7.91553E-4
20.4808354451664	1.98365E-4
20.547548264206	9.55585E-4
20.6142610832457	0.0011139
20.6809739022853	8.71662E-4
20.7476867213249	5.95096E-4
20.8143995403645	3.92916E-4
20.8811123594042	1.58311E-4
20.9478251784438	-6.8665E-5
21.0145379974834	-2.78475E-4
21.0812508165231	-2.51772E-4
21.1479636355627	-8.58312E-5
21.2146764546023	4.00546E-5
21.2813892736419	-8.01091E-5
21.3481020926816	-3.3951E-4
21.4148149117212	-4.13897E-4
21.4815277307608	-1.62126E-4
21.5482405498005	3.6812E-4
21.6149533688401	9.93736E-4
21.6816661878797	0.00124932
21.7483790069193	9.97551E-4
21.815091825959	2.70845E-4
21.8818046449986	-6.75205E-4
21.9485174640382	-0.00140954
22.0152302830779	-0.00170518
22.0819431021175	-0.00154496
22.1486559211571	-0.00104142
22.2153687401967	-3.29973E-4
22.2820815592364	5.47413E-4
22.348794378276	0.00110245
22.4155071973156	0.0010109
22.4822200163553	2.3079E-4
22.5489328353949	-8.67847E-4
22.6156456544345	-0.00159837
22.6823584734742	-0.00160409
22.7490712925138	-0.00110818
22.8157841115534	-4.59673E-4
22.882496930593	-8.20165E-5
22.9492097496327	-8.58312E-5
23.0159225686723	-2.65123E-4
23.0826353877119	-1.0109E-4
23.1493482067516	7.3624E-4
23.2160610257912	0.00206377
23.2827738448308	0.00331308
23.3494866638704	0.00395778
23.4161994829101	0.00395587
23.4829123019497	0.00353815
23.5496251209893	0.00289728
23.616337940029	0.00211145
23.6830507590686	9.63215E-4
23.7497635781082	-4.55858E-4
23.8164763971478	-0.00192643
23.8831892161875	-0.00308229
23.9499020352271	-0.00377847
24.0166148542667	-0.00395587
24.0833276733064	-0.00357629
24.150040492346	-0.0025921
24.2167533113856	-0.00120354
24.2834661304252	3.98638E-4
24.3501789494649	0.00163651
24.4168917685045	0.00209428
24.4836045875441	0.00188447
24.5503174065838	0.00112725
24.6170302256234	2.57494E-4
24.683743044663	-4.97822E-4
24.7504558637027	-9.11716E-4
24.8171686827423	-9.84199E-4
24.8838815017819	-8.27793E-4
24.9505943208215	-4.90192E-4
25.0173071398612	9.5368E-6
25.0840199589008	3.50954E-4
25.1507327779404	3.6812E-4
25.2174455969801	4.76839E-5
25.2841584160197	-2.00273E-4
25.3508712350593	-2.11717E-4
25.4175840540989	4.76839E-5
25.4842968731386	1.86921E-4
25.5510096921782	-9.34605E-5
25.6177225112178	-5.95096E-4
25.6844353302575	-6.84742E-4
25.7511481492971	-9.34605E-5
25.8178609683367	7.22889E-4
25.8845737873763	0.00115205
25.951286606416	6.73298E-4
26.0179994254556	-3.35695E-4
26.0847122444952	-0.00118638
26.1514250635349	-0.00133897
26.2181378825745	-7.11445E-4
26.2848507016141	2.15531E-4
26.3515635206538	9.11716E-4
26.4182763396934	0.00112153
26.484989158733	9.09809E-4
26.5517019777726	4.88285E-4
26.6184147968123	1.50681E-4
26.6851276158519	6.8665E-5
26.7518404348915	1.6594E-4
26.8185532539312	2.93734E-4
26.8852660729708	1.43052E-4
26.9519788920104	-2.59401E-4
27.01869171105	-6.52317E-4
27.0854045300897	-7.93461E-4
27.1521173491293	-7.45777E-4
27.2188301681689	-6.59946E-4
27.2855429872086	-5.8556E-4
27.3522558062482	-3.54769E-4
27.4189686252878	1.56404E-4
27.4856814443274	8.35422E-4
27.5523942633671	0.00125123
27.6191070824067	9.0218E-4
27.6858199014463	-1.23979E-4
27.752532720486	-0.00135422
27.8192455395256	-0.00196268
27.8859583585652	-0.00143624
27.9526711776048	-1.27793E-4
28.0193839966445	0.00125695
28.0860968156841	0.00185967
28.1528096347237	0.00154687
28.2195224537634	6.00819E-4
28.286235272803	-2.4605E-4
28.3529480918426	-5.66486E-4
28.4196609108823	-3.43325E-4
28.4863737299219	5.3406E-5
28.5530865489615	1.67848E-4
28.6197993680011	-3.05178E-5
28.6865121870408	-4.06267E-4
28.7532250060804	-6.35151E-4
28.81993782512	-4.84468E-4
28.8866506441597	-1.58311E-4
28.9533634631993	1.43052E-4
29.0200762822389	1.56404E-4
29.0867891012785	7.62945E-6
29.1535019203182	2.47956E-5
29.2202147393578	3.92916E-4
29.2869275583974	9.00272E-4
29.3536403774371	0.00107384
29.4203531964767	7.00001E-4
29.4870660155163	-1.04905E-4
29.5537788345559	-8.16349E-4
29.6204916535956	-0.00103951
29.6872044726352	-6.86649E-4
29.7539172916748	-8.39238E-5
29.8206301107145	3.54769E-4
29.8873429297541	5.13081E-4
29.9540557487937	5.01636E-4
30.0207685678333	4.00545E-4
30.087481386873	2.86104E-4
30.1541942059126	1.96458E-4
30.2209070249522	1.02997E-4
30.2876198439919	9.15532E-5
30.3543326630315	7.62944E-5
30.4210454820711	-1.71662E-4
30.4877583011107	-6.59946E-4
30.5544711201504	-0.0011406
30.62118393919	-0.00119019
30.6878967582296	-6.7902E-4
30.7546095772693	1.31608E-4
30.8213223963089	8.64033E-4
30.8880352153485	0.00104142
30.9547480343882	7.15259E-4
31.0214608534278	1.85014E-4
31.0881736724674	-2.25068E-4
31.154886491507	-3.71935E-4
31.2215993105467	-4.13897E-4
31.2883121295863	-5.68394E-4
31.3550249486259	-7.64851E-4
31.4217377676656	-8.0109E-4
31.4884505867052	-4.80654E-4
31.5551634057448	-1.33515E-5
31.6218762247844	4.52043E-4
31.6885890438241	5.8556E-4
31.7553018628637	5.01636E-4
31.8220146819033	3.47139E-4
31.888727500943	2.53679E-4
31.9554403199826	1.98365E-4
32.0221531390222	8.96459E-5
32.0888659580618	-1.20163E-4
32.1555787771015	-3.3951E-4
32.2222915961411	-5.4932E-4
32.2890044151807	-6.59946E-4
32.3557172342204	-6.65668E-4
32.42243005326	-5.16895E-4
32.4891428722996	-1.39237E-4
32.5558556913392	2.09809E-4
32.6225685103789	2.23161E-4
32.6892813294185	-1.10627E-4
32.7559941484581	-6.1417E-4
32.8227069674978	-7.40055E-4
32.8894197865374	-2.82289E-4
32.956132605577	5.51227E-4
33.0228454246167	0.00112534
33.0895582436563	9.95643E-4
33.1562710626959	2.59401E-4
33.2229838817355	-4.71117E-4
33.2896967007752	-5.8556E-4
33.3564095198148	2.0981E-5
33.4231223388544	7.57221E-4
33.4898351578941	9.82292E-4
33.5565479769337	5.91282E-4
33.6232607959733	1.90736E-6
33.6899736150129	-2.11717E-4
33.7566864340526	7.62945E-6
33.8233992530922	3.05178E-4
33.8901120721318	3.14714E-4
33.9568248911715	-1.04905E-4
34.0235377102111	-5.7793E-4
34.0902505292507	-7.03815E-4
34.1569633482903	-4.10082E-4
34.22367616733	7.82018E-5
34.2903889863696	4.31063E-4
34.3571018054092	5.07358E-4
34.4238146244489	3.49047E-4
34.4905274434885	1.14441E-4
34.5572402625281	-1.22071E-4
34.6239530815677	-2.72753E-4
34.6906659006074	-2.57494E-4
34.757378719647	-6.48503E-5
34.8240915386866	1.9455E-4
34.8908043577263	3.24251E-4
34.9575171767659	2.0218E-4
35.0242299958055	-4.38693E-5
35.0909428148451	-1.06812E-4
35.1576556338848	8.39238E-5
35.2243684529244	5.18803E-4
35.291081271964	7.64851E-4
35.3577940910037	5.35969E-4
35.4245069100433	-1.56404E-4
35.4912197290829	-8.31608E-4
35.5579325481226	-0.0011406
35.6246453671622	-8.25886E-4
35.6913581862018	-9.34605E-5
35.7580710052414	6.92371E-4
35.8247838242811	9.93736E-4
35.8914966433207	7.26704E-4
35.9582094623603	7.05724E-5
36.0249222814	-4.78746E-4
36.0916351004396	-6.12263E-4
36.1583479194792	-2.65123E-4
36.2250607385188	2.40327E-4
36.2917735575585	4.23433E-4
36.3584863765981	1.29701E-4
36.4251991956377	-3.94823E-4
36.4919120146774	-6.75205E-4
36.558624833717	-5.53135E-4
36.6253376527566	-1.33515E-4
36.6920504717963	3.109E-4
36.7587632908359	4.38692E-4
36.8254761098755	2.72753E-4
36.8921889289151	-9.5368E-6
36.9589017479548	-2.40327E-4
37.0256145669944	-2.4605E-4
37.092327386034	-4.00546E-5
37.1590402050737	2.13624E-4
37.2257530241133	3.66213E-4
37.2924658431529	2.7466E-4
37.3591786621925	9.15532E-5
37.4258914812322	-1.14442E-5
37.4926043002718	1.71663E-5
37.5593171193114	9.72752E-5
37.6260299383511	8.58312E-5
37.6927427573907	-1.02997E-4
37.7594555764303	-3.58583E-4
37.8261683954699	-4.57766E-4
37.8928812145096	-3.66213E-4
37.9595940335492	-1.20163E-4
38.0263068525888	7.05724E-5
38.0930196716285	4.57766E-5
38.1597324906681	-6.67577E-5
38.2264453097077	-1.62126E-4
38.2931581287473	-1.43052E-4
38.359870947787	2.86103E-5
38.4265837668266	1.6594E-4
38.4932965858662	2.17439E-4
38.5600094049059	1.10627E-4
38.6267222239455	4.19619E-5
38.6934350429851	1.69755E-4
38.7601478620247	3.52861E-4
38.8268606810644	5.24525E-4
38.893573500104	4.53951E-4
38.9602863191436	1.46867E-4
39.0269991381833	-1.86921E-4
39.0937119572229	-3.9673E-4
39.1604247762625	-3.85286E-4
39.2271375953021	-1.7357E-4
39.2938504143418	5.72207E-5
39.3605632333814	2.4605E-4
39.427276052421	2.55587E-4
39.4939888714607	8.77385E-5
39.5607016905003	-1.86921E-4
39.6274145095399	-5.26432E-4
39.6941273285796	-7.11445E-4
39.7608401476192	-6.12263E-4
39.8275529666588	-2.97548E-4
39.8942657856984	1.39237E-4
39.9609786047381	4.11989E-4
40.0276914237777	4.82561E-4
40.0944042428173	3.87194E-4
40.161117061857	2.63216E-4
40.2278298808966	1.02997E-4
40.2945426999362	-2.47956E-5
40.3612555189758	-1.18256E-4
40.4279683380155	-1.06812E-4
40.4946811570551	-8.39238E-5
40.5613939760947	-5.72207E-5
40.6281067951344	-9.34605E-5
40.694819614174	-1.50681E-4
40.7615324332136	-1.79292E-4
40.8282452522532	-1.10627E-4
40.8949580712929	-2.6703E-5
40.9616708903325	8.39238E-5
41.0283837093721	1.96458E-4
41.0950965284118	2.59401E-4
41.1618093474514	2.72753E-4
41.228522166491	1.92643E-4
41.2952349855306	6.8665E-5
41.3619478045703	-4.95913E-5
41.4286606236099	-9.34605E-5
41.4953734426495	-7.62944E-5
41.5620862616892	-1.79292E-4
41.6287990807288	-3.18529E-4
41.6955118997684	-3.98638E-4
41.762224718808	-3.43325E-4
41.8289375378477	-1.56404E-4
41.8956503568873	3.62399E-5
41.9623631759269	1.60218E-4
42.0290759949666	2.34605E-4
42.0957888140062	3.62398E-4
42.1625016330458	4.95914E-4
42.2292144520855	4.74932E-4
42.2959272711251	2.61309E-4
42.3626400901647	-8.01091E-5
42.4293529092043	-3.70027E-4
42.496065728244	-3.7575E-4
42.5627785472836	-1.06812E-4
42.6294913663232	2.23161E-4
42.6962041853629	3.41417E-4
42.7629170044025	1.39237E-4
42.8296298234421	-1.50681E-4
42.8963426424817	-2.53679E-4
42.9630554615214	1.0109E-4
43.029768280561	6.16077E-4
43.0964810996006	9.34605E-4
43.1631939186403	6.94279E-4
43.2299067376799	-9.53679E-5
43.2966195567195	-0.00104333
43.3633323757591	-0.00156213
43.4300451947988	-0.00134278
43.4967580138384	-6.4278E-4
43.563470832878	8.01091E-5
43.6301836519177	4.44414E-4
43.6968964709573	4.36785E-4
43.7636092899969	2.89919E-4
43.8303221090366	1.85014E-4
43.8970349280762	1.12534E-4
43.9637477471158	-1.33515E-5
44.0304605661554	-1.71662E-4
44.0971733851951	-2.3842E-4
44.1638862042347	-1.33515E-4
44.2305990232743	7.82018E-5
44.297311842314	2.99456E-4
44.3640246613536	3.83379E-4
44.4307374803932	3.89101E-4
44.4974502994328	3.94823E-4
44.5641631184725	4.48229E-4
44.6308759375121	6.23707E-4
44.6975887565517	8.48774E-4
44.7643015755914	0.00106431
44.831014394631	0.00102044
44.8977272136706	5.58857E-4
44.9644400327102	-2.0218E-4
45.0311528517499	-9.05994E-4
45.0978656707895	-0.00129319
45.1645784898291	-0.0011654
45.2312913088688	-8.71662E-4
45.2980041279084	-6.16077E-4
45.364716946948	-5.32154E-4
45.4314297659876	-4.00545E-4
45.4981425850273	-9.91826E-5
45.5648554040669	3.3951E-4
45.6315682231065	6.92371E-4
45.6982810421462	7.91553E-4
45.7649938611858	5.93189E-4
45.8317066802254	2.17439E-4
45.898419499265	-1.75477E-4
45.9651323183047	-4.27248E-4
46.0318451373443	-4.80654E-4
46.0985579563839	-4.73024E-4
46.1652707754236	-4.34877E-4
46.2319835944632	-3.31881E-4
46.2986964135028	-1.71663E-5
46.3654092325424	4.48229E-4
46.4321220515821	7.78202E-4
46.4988348706217	7.83924E-4
46.5655476896613	4.29155E-4
46.632260508701	-5.3406E-5
46.6989733277406	-4.08174E-4
46.7656861467802	-5.58857E-4
46.8323989658199	-5.28339E-4
46.8991117848595	-4.73024E-4
46.9658246038991	-4.02452E-4
47.0325374229387	-2.36512E-4
